Time(min)	Fluorescence
0.000000	30.000000
0.360360	30.001225
0.720721	30.006322
1.081081	30.015586
1.441441	30.028973
1.801802	30.046466
2.162162	30.068007
2.522523	30.093591
2.882883	30.123163
3.243243	30.155464
3.603604	30.190973
3.963964	30.230269
4.324324	30.273351
4.684685	30.320219
5.045045	30.370874
5.405405	30.425315
5.765766	30.483543
6.126126	30.545557
6.486486	30.611358
6.846847	30.680945
7.207207	30.754318
7.567568	30.831478
7.927928	30.912424
8.288288	30.997157
8.648649	31.085676
9.009009	31.177106
9.369369	31.269354
9.729730	31.364960
10.090090	31.463924
10.450450	31.566245
10.810811	31.671923
11.171171	31.780959
11.531532	31.893352
11.891892	32.009103
12.252252	32.128211
12.612613	32.250677
12.972973	32.376500
13.333333	32.505681
13.693694	32.638219
14.054054	32.774114
14.414414	32.913368
14.774775	33.055978
15.135135	33.216673
15.495495	33.358317
15.855856	33.503268
16.216216	33.651495
16.576577	33.802973
16.936937	33.957671
17.297297	34.115561
17.657658	34.276616
18.018018	34.440807
18.378378	34.608105
18.738739	34.778483
19.099099	34.951911
19.459459	35.128362
19.819820	35.307806
20.180180	35.490217
20.540541	35.675564
20.900901	35.862681
21.261261	36.050704
21.621622	36.241368
21.981982	36.434641
22.342342	36.630488
22.702703	36.828877
23.063063	37.029775
23.423423	37.233148
23.783784	37.438963
24.144144	37.647188
24.504505	37.857790
24.864865	38.070734
25.225225	38.285988
25.585586	38.503519
25.945946	38.723294
26.306306	38.945279
26.666667	39.169442
27.027027	39.395749
27.387387	39.624168
27.747748	39.854664
28.108108	40.087206
28.468468	40.321760
28.828829	40.558292
29.189189	40.796770
29.549550	41.037161
29.909910	41.279431
30.270270	41.523547
30.630631	41.769477
30.990991	42.017186
31.351351	42.266643
31.711712	42.517813
32.072072	42.770665
32.432432	43.025163
32.792793	43.281277
33.153153	43.538971
33.513514	43.798214
33.873874	44.058973
34.234234	44.321213
34.594595	44.584902
34.954955	44.850007
35.315315	45.116494
35.675676	45.384331
36.036036	45.653485
36.396396	45.925579
36.756757	46.201662
37.117117	46.479259
37.477477	46.758345
37.837838	47.038892
38.198198	47.320876
38.558559	47.604269
38.918919	47.889045
39.279279	48.175177
39.639640	48.462640
40.000000	48.751406
40.360360	49.041449
40.720721	49.332744
41.081081	49.625263
41.441441	49.918979
41.801802	50.213868
42.162162	50.509902
42.522523	50.807055
42.882883	51.105300
43.243243	51.404611
43.603604	51.704962
43.963964	52.006326
44.324324	52.308677
44.684685	52.611988
45.045045	52.916233
45.405405	53.221386
45.765766	53.527420
46.126126	53.834309
46.486486	54.142026
46.846847	54.450546
47.207207	54.759841
47.567568	55.069885
47.927928	55.380651
48.288288	55.692114
48.648649	56.004247
49.009009	56.317024
49.369369	56.630418
49.729730	56.944402
50.090090	57.258951
50.450450	57.574038
50.810811	57.889636
51.171171	58.205719
51.531532	58.522261
51.891892	58.841469
52.252252	59.164607
52.612613	59.488515
52.972973	59.813174
53.333333	60.138567
53.693694	60.464677
54.054054	60.791486
54.414414	61.118977
54.774775	61.447131
55.135135	61.775931
55.495495	62.105360
55.855856	62.435399
56.216216	62.766032
56.576577	63.097241
56.936937	63.429007
57.297297	63.761314
57.657658	64.094143
58.018018	64.427478
58.378378	64.761300
58.738739	65.095593
59.099099	65.430337
59.459459	65.765516
59.819820	66.101112
60.180180	66.437108
60.540541	66.773485
60.900901	67.110226
61.261261	67.447314
61.621622	67.784731
61.981982	68.122460
62.342342	68.460482
62.702703	68.798779
63.063063	69.137336
63.423423	69.476133
63.783784	69.815153
64.144144	70.154379
64.504505	70.493793
64.864865	70.833378
65.225225	71.173115
65.585586	71.512987
65.945946	71.852976
66.306306	72.193065
66.666667	72.533237
67.027027	72.873473
67.387387	73.237250
67.747748	73.580067
68.108108	73.923336
68.468468	74.267039
68.828829	74.611160
69.189189	74.955681
69.549550	75.300585
69.909910	75.645855
70.270270	75.991476
70.630631	76.337431
70.990991	76.683703
71.351351	77.030277
71.711712	77.377137
72.072072	77.724266
72.432432	78.071650
72.792793	78.419273
73.153153	78.767119
73.513514	79.115174
73.873874	79.463423
74.234234	79.811851
74.594595	80.160443
74.954955	80.509184
75.315315	80.858062
75.675676	81.207060
76.036036	81.556166
76.396396	81.905366
76.756757	82.254645
77.117117	82.603991
77.477477	82.953389
77.837838	83.302828
78.198198	83.652293
78.558559	84.001772
78.918919	84.351253
79.279279	84.700722
79.639640	85.050167
80.000000	85.399576
80.360360	85.748937
80.720721	86.098239
81.081081	86.447468
81.441441	86.796614
81.801802	87.145665
82.162162	87.494610
82.522523	87.843438
82.882883	88.192987
83.243243	88.543620
83.603604	88.894247
83.963964	89.244860
84.324324	89.595453
84.684685	89.946021
85.045045	90.296559
85.405405	90.647061
85.765766	90.997522
86.126126	91.347937
86.486486	91.698302
86.846847	92.048611
87.207207	92.398862
87.567568	92.749050
87.927928	93.099170
88.288288	93.449221
88.648649	93.799197
89.009009	94.149096
89.369369	94.498916
89.729730	94.848652
90.090090	95.198304
90.450450	95.547868
90.810811	95.897343
91.171171	96.246726
91.531532	96.596016
91.891892	96.945211
92.252252	97.294311
92.612613	97.643314
92.972973	97.992219
93.333333	98.341026
93.693694	98.689734
94.054054	99.038344
94.414414	99.386855
94.774775	99.735267
95.135135	100.083581
95.495495	100.431798
95.855856	100.779919
96.216216	101.127944
96.576577	101.475875
96.936937	101.823714
97.297297	102.171462
97.657658	102.519121
98.018018	102.866693
98.378378	103.214181
98.738739	103.561588
99.099099	103.908915
99.459459	104.256167
99.819820	104.603346
100.180180	104.950456
100.540541	105.297501
100.900901	105.644483
101.261261	105.991409
101.621622	106.338103
101.981982	106.682642
102.342342	107.026979
102.702703	107.371113
103.063063	107.715045
103.423423	108.058774
103.783784	108.402301
104.144144	108.745627
104.504505	109.088753
104.864865	109.431679
105.225225	109.774407
105.585586	110.116938
105.945946	110.459273
106.306306	110.801414
106.666667	111.143362
107.027027	111.485121
107.387387	111.826690
107.747748	112.168073
108.108108	112.509272
108.468468	112.850290
108.828829	113.191128
109.189189	113.531790
109.549550	113.872279
109.909910	114.212598
110.270270	114.552750
110.630631	114.892738
110.990991	115.232565
111.351351	115.572237
111.711712	115.911756
112.072072	116.251126
112.432432	116.590352
112.792793	116.929437
113.153153	117.268387
113.513514	117.607206
113.873874	117.945898
114.234234	118.284468
114.594595	118.622922
114.954955	118.961265
115.315315	119.299502
115.675676	119.637638
116.036036	119.975680
116.396396	120.313633
116.756757	120.651502
117.117117	120.989295
117.477477	121.327016
117.837838	121.664674
118.198198	122.002274
118.558559	122.339823
118.918919	122.677327
119.279279	123.014795
119.639640	123.352232
120.000000	123.689647
120.360360	124.027047
120.720721	124.361879
121.081081	124.695562
121.441441	125.029001
121.801802	125.362196
122.162162	125.695148
122.522523	126.027858
122.882883	126.360326
123.243243	126.692553
123.603604	127.024540
123.963964	127.356286
124.324324	127.687794
124.684685	128.019064
125.045045	128.350096
125.405405	128.680892
125.765766	129.011453
126.126126	129.341780
126.486486	129.671874
126.846847	130.001736
127.207207	130.331367
127.567568	130.660769
127.927928	130.989943
128.288288	131.318891
128.648649	131.647614
129.009009	131.976113
129.369369	132.304390
129.729730	132.632448
130.090090	132.960286
130.450450	133.287908
130.810811	133.615315
131.171171	133.942509
131.531532	134.269492
131.891892	134.596265
132.252252	134.922832
132.612613	135.249193
132.972973	135.575352
133.333333	135.901310
133.693694	136.227069
134.054054	136.552633
134.414414	136.878002
134.774775	137.203181
135.135135	137.528171
135.495495	137.852974
135.855856	138.177594
136.216216	138.502034
136.576577	138.826295
136.936937	139.150380
137.297297	139.474293
137.657658	139.798036
138.018018	140.121613
138.378378	140.445026
138.738739	140.768278
139.099099	141.091373
139.459459	141.413595
139.819820	141.734417
140.180180	142.054956
140.540541	142.375212
140.900901	142.695182
141.261261	143.014867
141.621622	143.334266
141.981982	143.653378
142.342342	143.972201
142.702703	144.290736
143.063063	144.608982
143.423423	144.926938
143.783784	145.244602
144.144144	145.561975
144.504505	145.879056
144.864865	146.195843
145.225225	146.512336
145.585586	146.828535
145.945946	147.144438
146.306306	147.460045
146.666667	147.775356
147.027027	148.090369
147.387387	148.405083
147.747748	148.719499
148.108108	149.033615
148.468468	149.347431
148.828829	149.660946
149.189189	149.974159
149.549550	150.287069
149.909910	150.599677
150.270270	150.911981
150.630631	151.223980
150.990991	151.535675
151.351351	151.847063
151.711712	152.158146
152.072072	152.468921
152.432432	152.779389
152.792793	153.089549
153.153153	153.399399
153.513514	153.708941
153.873874	154.018172
154.234234	154.327092
154.594595	154.635701
154.954955	154.943998
155.315315	155.251983
155.675676	155.559654
156.036036	155.867012
156.396396	156.174055
156.756757	156.480784
157.117117	156.787197
157.477477	157.093294
157.837838	157.399074
158.198198	157.704427
158.558559	158.009406
158.918919	158.314053
159.279279	158.618369
159.639640	158.922352
160.000000	159.226002
160.360360	159.529317
160.720721	159.832296
161.081081	160.134940
161.441441	160.437246
161.801802	160.739214
162.162162	161.040843
162.522523	161.342132
162.882883	161.643081
163.243243	161.943688
163.603604	162.243952
163.963964	162.543873
164.324324	162.843449
164.684685	163.142680
165.045045	163.441565
165.405405	163.740103
165.765766	164.038293
166.126126	164.336134
166.486486	164.633625
166.846847	164.930765
167.207207	165.227554
167.567568	165.523990
167.927928	165.820073
168.288288	166.115802
168.648649	166.411175
169.009009	166.706193
169.369369	167.000853
169.729730	167.295156
170.090090	167.589099
170.450450	167.882683
170.810811	168.175907
171.171171	168.468769
171.531532	168.761268
171.891892	169.053404
172.252252	169.345176
172.612613	169.636583
172.972973	169.927624
173.333333	170.218298
173.693694	170.508604
174.054054	170.798541
174.414414	171.088109
174.774775	171.377306
175.135135	171.666132
175.495495	171.954586
175.855856	172.242666
176.216216	172.530373
176.576577	172.817704
176.936937	173.104659
177.297297	173.393186
177.657658	173.682280
178.018018	173.971052
178.378378	174.259502
178.738739	174.547629
179.099099	174.835433
179.459459	175.122912
179.819820	175.410067
180.180180	175.696898
180.540541	175.983402
180.900901	176.269581
181.261261	176.555433
181.621622	176.840957
181.981982	177.126155
182.342342	177.411023
182.702703	177.695564
183.063063	177.979775
183.423423	178.263656
183.783784	178.547207
184.144144	178.830427
184.504505	179.113315
184.864865	179.395872
185.225225	179.678097
185.585586	179.959988
185.945946	180.241546
186.306306	180.522770
186.666667	180.803659
187.027027	181.084214
187.387387	181.364432
187.747748	181.644315
188.108108	181.923861
188.468468	182.203070
188.828829	182.481941
189.189189	182.760474
189.549550	183.038668
189.909910	183.316522
190.270270	183.594037
190.630631	183.871212
190.990991	184.148045
191.351351	184.424538
191.711712	184.700688
192.072072	184.976496
192.432432	185.251961
192.792793	185.527082
193.153153	185.801859
193.513514	186.076292
193.873874	186.350379
194.234234	186.624121
194.594595	186.897517
194.954955	187.170566
195.315315	187.443267
195.675676	187.715621
196.036036	187.987627
196.396396	188.259284
196.756757	188.530591
197.117117	188.801549
197.477477	189.072156
197.837838	189.342412
198.198198	189.612317
198.558559	189.881870
198.918919	190.151070
199.279279	190.419917
199.639640	190.688411
200.000000	190.956550
200.360360	191.224335
200.720721	191.491765
201.081081	191.758839
201.441441	192.025557
201.801802	192.291917
202.162162	192.557921
202.522523	192.823567
202.882883	193.088855
203.243243	193.353783
203.603604	193.618352
203.963964	193.882562
204.324324	194.146410
204.684685	194.409898
205.045045	194.673025
205.405405	194.935789
205.765766	195.198191
206.126126	195.460229
206.486486	195.721904
206.846847	195.983215
207.207207	196.244161
207.567568	196.504742
207.927928	196.764957
208.288288	197.024805
208.648649	197.284287
209.009009	197.543402
209.369369	197.802149
209.729730	198.060527
210.090090	198.318537
210.450450	198.576177
210.810811	198.833447
211.171171	199.090346
211.531532	199.346874
211.891892	199.603031
212.252252	199.858816
212.612613	200.114228
212.972973	200.369267
213.333333	200.623932
213.693694	200.878223
214.054054	201.132139
214.414414	201.385680
214.774775	201.638846
215.135135	201.891634
215.495495	202.144046
215.855856	202.396081
216.216216	202.647738
216.576577	202.899016
216.936937	203.149915
217.297297	203.400435
217.657658	203.650574
218.018018	203.900333
218.378378	204.149711
218.738739	204.398708
219.099099	204.647322
219.459459	204.895553
219.819820	205.143402
220.180180	205.390866
220.540541	205.637947
220.900901	205.884642
221.261261	206.130952
221.621622	206.376876
221.981982	206.622414
222.342342	206.867565
222.702703	207.112329
223.063063	207.356704
223.423423	207.600691
223.783784	207.844289
224.144144	208.087498
224.504505	208.330316
224.864865	208.572744
225.225225	208.814780
225.585586	209.056425
225.945946	209.297678
226.306306	209.538538
226.666667	209.779004
227.027027	210.019077
227.387387	210.258756
227.747748	210.498039
228.108108	210.736928
228.468468	210.975420
228.828829	211.213516
229.189189	211.451215
229.549550	211.688516
229.909910	211.925420
230.270270	212.161925
230.630631	212.398030
230.990991	212.633736
231.351351	212.869042
231.711712	213.106480
232.072072	213.344800
232.432432	213.582793
232.792793	213.820460
233.153153	214.057800
233.513514	214.294813
233.873874	214.531498
234.234234	214.767857
234.594595	215.003889
234.954955	215.239594
235.315315	215.474971
235.675676	215.710021
236.036036	215.944744
236.396396	216.179140
236.756757	216.413209
237.117117	216.646950
237.477477	216.880364
237.837838	217.113450
238.198198	217.346209
238.558559	217.578640
238.918919	217.810744
239.279279	218.042521
239.639640	218.273969
240.000000	218.505091
240.360360	218.735884
240.720721	218.966350
241.081081	219.196488
241.441441	219.426298
241.801802	219.655780
242.162162	219.884934
242.522523	220.113761
242.882883	220.342260
243.243243	220.570430
243.603604	220.798273
243.963964	221.025787
244.324324	221.252974
244.684685	221.479832
245.045045	221.706362
245.405405	221.932564
245.765766	222.158437
246.126126	222.383982
246.486486	222.609199
246.846847	222.834088
247.207207	223.058648
247.567568	223.282880
247.927928	223.506783
248.288288	223.730357
248.648649	223.953604
249.009009	224.176521
249.369369	224.399110
249.729730	224.621370
250.090090	224.843301
250.450450	225.064904
250.810811	225.286178
251.171171	225.507123
251.531532	225.727739
251.891892	225.948026
252.252252	226.167985
252.612613	226.387614
252.972973	226.606914
253.333333	226.825885
253.693694	227.044527
254.054054	227.262840
254.414414	227.480824
254.774775	227.698479
255.135135	227.915804
255.495495	228.132800
255.855856	228.349466
256.216216	228.565804
256.576577	228.781811
256.936937	228.997490
257.297297	229.212839
257.657658	229.427858
258.018018	229.642548
258.378378	229.856908
258.738739	230.070938
259.099099	230.284639
259.459459	230.498010
259.819820	230.711052
260.180180	230.923763
260.540541	231.136145
260.900901	231.348197
261.261261	231.559918
261.621622	231.771310
261.981982	231.982372
262.342342	232.193104
262.702703	232.403506
263.063063	232.613578
263.423423	232.823319
263.783784	233.032731
264.144144	233.241812
264.504505	233.450563
264.864865	233.658983
265.225225	233.867073
265.585586	234.074833
265.945946	234.282263
266.306306	234.489362
266.666667	234.696130
267.027027	234.902568
267.387387	235.108676
267.747748	235.314452
268.108108	235.519898
268.468468	235.725014
268.828829	235.929799
269.189189	236.134252
269.549550	236.338376
269.909910	236.542168
270.270270	236.745629
270.630631	236.948760
270.990991	237.151559
271.351351	237.354028
271.711712	237.556165
272.072072	237.757972
272.432432	237.959447
272.792793	238.160591
273.153153	238.361404
273.513514	238.561886
273.873874	238.762036
274.234234	238.961855
274.594595	239.161343
274.954955	239.360500
275.315315	239.559325
275.675676	239.757818
276.036036	239.955980
276.396396	240.153811
276.756757	240.351310
277.117117	240.548477
277.477477	240.745313
277.837838	240.941817
278.198198	241.137989
278.558559	241.333829
278.918919	241.529338
279.279279	241.724515
279.639640	241.919360
280.000000	242.113873
280.360360	242.308054
280.720721	242.501903
281.081081	242.695420
281.441441	242.888605
281.801802	243.081458
282.162162	243.273978
282.522523	243.466167
282.882883	243.658023
283.243243	243.849547
283.603604	244.040739
283.963964	244.231598
284.324324	244.422125
284.684685	244.612320
285.045045	244.802182
285.405405	244.991711
285.765766	245.180908
286.126126	245.371703
286.486486	245.563189
286.846847	245.754399
287.207207	245.945336
287.567568	246.135998
287.927928	246.326387
288.288288	246.516502
288.648649	246.706345
289.009009	246.895915
289.369369	247.085212
289.729730	247.274238
290.090090	247.462992
290.450450	247.651474
290.810811	247.839686
291.171171	248.027627
291.531532	248.215298
291.891892	248.402699
292.252252	248.589831
292.612613	248.776693
292.972973	248.963287
293.333333	249.149611
293.693694	249.335668
294.054054	249.521457
294.414414	249.706978
294.774775	249.892232
295.135135	250.077220
295.495495	250.261941
295.855856	250.446395
296.216216	250.630584
296.576577	250.814507
296.936937	250.998166
297.297297	251.181559
297.657658	251.364688
298.018018	251.547553
298.378378	251.730154
298.738739	251.912492
299.099099	252.094567
299.459459	252.276379
299.819820	252.457928
300.180180	252.639216
300.540541	252.820242
300.900901	253.001006
301.261261	253.181509
301.621622	253.361752
301.981982	253.541734
302.342342	253.721457
302.702703	253.900919
303.063063	254.080123
303.423423	254.259067
303.783784	254.437753
304.144144	254.616180
304.504505	254.794350
304.864865	254.972262
305.225225	255.149916
305.585586	255.327314
305.945946	255.504455
306.306306	255.681340
306.666667	255.857969
307.027027	256.034342
307.387387	256.210460
307.747748	256.386323
308.108108	256.561932
308.468468	256.737286
308.828829	256.912387
309.189189	257.087234
309.549550	257.261828
309.909910	257.436169
310.270270	257.610257
310.630631	257.784094
310.990991	257.957678
311.351351	258.131011
311.711712	258.304093
312.072072	258.476924
312.432432	258.649505
312.792793	258.821835
313.153153	258.993916
313.513514	259.165748
313.873874	259.337330
314.234234	259.508663
314.594595	259.679749
314.954955	259.850586
315.315315	260.021175
315.675676	260.191517
316.036036	260.361612
316.396396	260.531460
316.756757	260.701062
317.117117	260.870418
317.477477	261.039528
317.837838	261.208393
318.198198	261.377012
318.558559	261.545388
318.918919	261.713519
319.279279	261.881405
319.639640	262.049049
320.000000	262.216449
320.360360	262.383606
320.720721	262.550520
321.081081	262.717192
321.441441	262.883623
